# Time (a.u.)	Order parameter |r|
0.0000	1.1022279e-02
0.0010	1.1138845e-02
0.0020	1.1259170e-02
0.0030	1.1383187e-02
0.0040	1.1510828e-02
0.0050	1.1642025e-02
0.0060	1.1776710e-02
0.0070	1.1914817e-02
0.0080	1.2056278e-02
0.0090	1.2201028e-02
0.0100	1.2349002e-02
0.0110	1.2500135e-02
0.0120	1.2654364e-02
0.0130	1.2811628e-02
0.0140	1.2971866e-02
0.0150	1.3135019e-02
0.0160	1.3301028e-02
0.0170	1.3469838e-02
0.0180	1.3641392e-02
0.0190	1.3815638e-02
0.0200	1.3992523e-02
0.0210	1.4171997e-02
0.0220	1.4354010e-02
0.0230	1.4538514e-02
0.0240	1.4725464e-02
0.0250	1.4914814e-02
0.0260	1.5106521e-02
0.0270	1.5300542e-02
0.0280	1.5496838e-02
0.0290	1.5695368e-02
0.0300	1.5896096e-02
0.0310	1.6098983e-02
0.0320	1.6303996e-02
0.0330	1.6511099e-02
0.0340	1.6720259e-02
0.0350	1.6931445e-02
0.0360	1.7144626e-02
0.0370	1.7359772e-02
0.0380	1.7576854e-02
0.0390	1.7795846e-02
0.0400	1.8016720e-02
0.0410	1.8239451e-02
0.0420	1.8464014e-02
0.0430	1.8690385e-02
0.0440	1.8918542e-02
0.0450	1.9148462e-02
0.0460	1.9380123e-02
0.0470	1.9613505e-02
0.0480	1.9848589e-02
0.0490	2.0085354e-02
0.0500	2.0323783e-02
0.0510	2.0563858e-02
0.0520	2.0805561e-02
0.0530	2.1048876e-02
0.0540	2.1293786e-02
0.0550	2.1540277e-02
0.0560	2.1788333e-02
0.0570	2.2037940e-02
0.0580	2.2289084e-02
0.0590	2.2541751e-02
0.0600	2.2795928e-02
0.0610	2.3051603e-02
0.0620	2.3308764e-02
0.0630	2.3567398e-02
0.0640	2.3827494e-02
0.0650	2.4089042e-02
0.0660	2.4352030e-02
0.0670	2.4616447e-02
0.0680	2.4882285e-02
0.0690	2.5149533e-02
0.0700	2.5418181e-02
0.0710	2.5688221e-02
0.0720	2.5959643e-02
0.0730	2.6232438e-02
0.0740	2.6506599e-02
0.0750	2.6782117e-02
0.0760	2.7058984e-02
0.0770	2.7337192e-02
0.0780	2.7616734e-02
0.0790	2.7897602e-02
0.0800	2.8179789e-02
0.0810	2.8463287e-02
0.0820	2.8748091e-02
0.0830	2.9034193e-02
0.0840	2.9321587e-02
0.0850	2.9610266e-02
0.0860	2.9900224e-02
0.0870	3.0191454e-02
0.0880	3.0483952e-02
0.0890	3.0777710e-02
0.0900	3.1072724e-02
0.0910	3.1368986e-02
0.0920	3.1666493e-02
0.0930	3.1965238e-02
0.0940	3.2265215e-02
0.0950	3.2566420e-02
0.0960	3.2868847e-02
0.0970	3.3172492e-02
0.0980	3.3477348e-02
0.0990	3.3783411e-02
0.1000	3.4090676e-02
0.1010	3.4399139e-02
0.1020	3.4708793e-02
0.1030	3.5019635e-02
0.1040	3.5331660e-02
0.1050	3.5644863e-02
0.1060	3.5959239e-02
0.1070	3.6274785e-02
0.1080	3.6591494e-02
0.1090	3.6909363e-02
0.1100	3.7228388e-02
0.1110	3.7548564e-02
0.1120	3.7869886e-02
0.1130	3.8192350e-02
0.1140	3.8515952e-02
0.1150	3.8840688e-02
0.1160	3.9166553e-02
0.1170	3.9493543e-02
0.1180	3.9821653e-02
0.1190	4.0150880e-02
0.1200	4.0481220e-02
0.1210	4.0812667e-02
0.1220	4.1145219e-02
0.1230	4.1478870e-02
0.1240	4.1813617e-02
0.1250	4.2149456e-02
0.1260	4.2486382e-02
0.1270	4.2824391e-02
0.1280	4.3163480e-02
0.1290	4.3503644e-02
0.1300	4.3844879e-02
0.1310	4.4187182e-02
0.1320	4.4530547e-02
0.1330	4.4874972e-02
0.1340	4.5220451e-02
0.1350	4.5566982e-02
0.1360	4.5914560e-02
0.1370	4.6263181e-02
0.1380	4.6612841e-02
0.1390	4.6963536e-02
0.1400	4.7315262e-02
0.1410	4.7668015e-02
0.1420	4.8021792e-02
0.1430	4.8376588e-02
0.1440	4.8732399e-02
0.1450	4.9089222e-02
0.1460	4.9447052e-02
0.1470	4.9805885e-02
0.1480	5.0165719e-02
0.1490	5.0526547e-02
0.1500	5.0888368e-02
0.1510	5.1251177e-02
0.1520	5.1614970e-02
0.1530	5.1979743e-02
0.1540	5.2345492e-02
0.1550	5.2712214e-02
0.1560	5.3079905e-02
0.1570	5.3448560e-02
0.1580	5.3818176e-02
0.1590	5.4188750e-02
0.1600	5.4560277e-02
0.1610	5.4932753e-02
0.1620	5.5306176e-02
0.1630	5.5680540e-02
0.1640	5.6055843e-02
0.1650	5.6432080e-02
0.1660	5.6809248e-02
0.1670	5.7187343e-02
0.1680	5.7566362e-02
0.1690	5.7946301e-02
0.1700	5.8327155e-02
0.1710	5.8708922e-02
0.1720	5.9091598e-02
0.1730	5.9475180e-02
0.1740	5.9859662e-02
0.1750	6.0245043e-02
0.1760	6.0631319e-02
0.1770	6.1018486e-02
0.1780	6.1406540e-02
0.1790	6.1795478e-02
0.1800	6.2185296e-02
0.1810	6.2575992e-02
0.1820	6.2967562e-02
0.1830	6.3360002e-02
0.1840	6.3753308e-02
0.1850	6.4147479e-02
0.1860	6.4542509e-02
0.1870	6.4938397e-02
0.1880	6.5335139e-02
0.1890	6.5732730e-02
0.1900	6.6131170e-02
0.1910	6.6530453e-02
0.1920	6.6930577e-02
0.1930	6.7331539e-02
0.1940	6.7733336e-02
0.1950	6.8135965e-02
0.1960	6.8539422e-02
0.1970	6.8943705e-02
0.1980	6.9348810e-02
0.1990	6.9754735e-02
0.2000	7.0161478e-02
0.2010	7.0569034e-02
0.2020	7.0977401e-02
0.2030	7.1386577e-02
0.2040	7.1796558e-02
0.2050	7.2207343e-02
0.2060	7.2618927e-02
0.2070	7.3031309e-02
0.2080	7.3444486e-02
0.2090	7.3858456e-02
0.2100	7.4273215e-02
0.2110	7.4688762e-02
0.2120	7.5105094e-02
0.2130	7.5522208e-02
0.2140	7.5940103e-02
0.2150	7.6358775e-02
0.2160	7.6778223e-02
0.2170	7.7198444e-02
0.2180	7.7619436e-02
0.2190	7.8041197e-02
0.2200	7.8463725e-02
0.2210	7.8887018e-02
0.2220	7.9311073e-02
0.2230	7.9735889e-02
0.2240	8.0161464e-02
0.2250	8.0587795e-02
0.2260	8.1014882e-02
0.2270	8.1442722e-02
0.2280	8.1871313e-02
0.2290	8.2300653e-02
0.2300	8.2730742e-02
0.2310	8.3161578e-02
0.2320	8.3593158e-02
0.2330	8.4025481e-02
0.2340	8.4458546e-02
0.2350	8.4892351e-02
0.2360	8.5326895e-02
0.2370	8.5762177e-02
0.2380	8.6198195e-02
0.2390	8.6634948e-02
0.2400	8.7072435e-02
0.2410	8.7510655e-02
0.2420	8.7949606e-02
0.2430	8.8389288e-02
0.2440	8.8829699e-02
0.2450	8.9270838e-02
0.2460	8.9712705e-02
0.2470	9.0155299e-02
0.2480	9.0598619e-02
0.2490	9.1042664e-02
0.2500	9.1487433e-02
0.2510	9.1932926e-02
0.2520	9.2379142e-02
0.2530	9.2826080e-02
0.2540	9.3273741e-02
0.2550	9.3722123e-02
0.2560	9.4171226e-02
0.2570	9.4621049e-02
0.2580	9.5071593e-02
0.2590	9.5522857e-02
0.2600	9.5974841e-02
0.2610	9.6427545e-02
0.2620	9.6880967e-02
0.2630	9.7335110e-02
0.2640	9.7789971e-02
0.2650	9.8245552e-02
0.2660	9.8701852e-02
0.2670	9.9158872e-02
0.2680	9.9616612e-02
0.2690	1.0007507e-01
0.2700	1.0053425e-01
0.2710	1.0099415e-01
0.2720	1.0145477e-01
0.2730	1.0191611e-01
0.2740	1.0237817e-01
0.2750	1.0284096e-01
0.2760	1.0330446e-01
0.2770	1.0376869e-01
0.2780	1.0423365e-01
0.2790	1.0469933e-01
0.2800	1.0516573e-01
0.2810	1.0563286e-01
0.2820	1.0610071e-01
0.2830	1.0656929e-01
0.2840	1.0703860e-01
0.2850	1.0750864e-01
0.2860	1.0797941e-01
0.2870	1.0845091e-01
0.2880	1.0892314e-01
0.2890	1.0939611e-01
0.2900	1.0986980e-01
0.2910	1.1034424e-01
0.2920	1.1081941e-01
0.2930	1.1129532e-01
0.2940	1.1177197e-01
0.2950	1.1224935e-01
0.2960	1.1272748e-01
0.2970	1.1320636e-01
0.2980	1.1368597e-01
0.2990	1.1416634e-01
0.3000	1.1464745e-01
0.3010	1.1512930e-01
0.3020	1.1561191e-01
0.3030	1.1609528e-01
0.3040	1.1657939e-01
0.3050	1.1706426e-01
0.3060	1.1754989e-01
0.3070	1.1803628e-01
0.3080	1.1852342e-01
0.3090	1.1901133e-01
0.3100	1.1950001e-01
0.3110	1.1998945e-01
0.3120	1.2047965e-01
0.3130	1.2097063e-01
0.3140	1.2146238e-01
0.3150	1.2195490e-01
0.3160	1.2244820e-01
0.3170	1.2294228e-01
0.3180	1.2343713e-01
0.3190	1.2393277e-01
0.3200	1.2442919e-01
0.3210	1.2492639e-01
0.3220	1.2542439e-01
0.3230	1.2592317e-01
0.3240	1.2642275e-01
0.3250	1.2692312e-01
0.3260	1.2742428e-01
0.3270	1.2792625e-01
0.3280	1.2842902e-01
0.3290	1.2893258e-01
0.3300	1.2943696e-01
0.3310	1.2994214e-01
0.3320	1.3044813e-01
0.3330	1.3095494e-01
0.3340	1.3146255e-01
0.3350	1.3197099e-01
0.3360	1.3248024e-01
0.3370	1.3299032e-01
0.3380	1.3350122e-01
0.3390	1.3401294e-01
0.3400	1.3452549e-01
0.3410	1.3503888e-01
0.3420	1.3555309e-01
0.3430	1.3606814e-01
0.3440	1.3658403e-01
0.3450	1.3710076e-01
0.3460	1.3761833e-01
0.3470	1.3813674e-01
0.3480	1.3865600e-01
0.3490	1.3917611e-01
0.3500	1.3969707e-01
0.3510	1.4021889e-01
0.3520	1.4074156e-01
0.3530	1.4126509e-01
0.3540	1.4178947e-01
0.3550	1.4231472e-01
0.3560	1.4284084e-01
0.3570	1.4336782e-01
0.3580	1.4389567e-01
0.3590	1.4442440e-01
0.3600	1.4495399e-01
0.3610	1.4548447e-01
0.3620	1.4601582e-01
0.3630	1.4654805e-01
0.3640	1.4708116e-01
0.3650	1.4761515e-01
0.3660	1.4815004e-01
0.3670	1.4868581e-01
0.3680	1.4922247e-01
0.3690	1.4976002e-01
0.3700	1.5029846e-01
0.3710	1.5083781e-01
0.3720	1.5137805e-01
0.3730	1.5191919e-01
0.3740	1.5246123e-01
0.3750	1.5300417e-01
0.3760	1.5354802e-01
0.3770	1.5409277e-01
0.3780	1.5463844e-01
0.3790	1.5518501e-01
0.3800	1.5573250e-01
0.3810	1.5628090e-01
0.3820	1.5683021e-01
0.3830	1.5738044e-01
0.3840	1.5793159e-01
0.3850	1.5848365e-01
0.3860	1.5903664e-01
0.3870	1.5959054e-01
0.3880	1.6014538e-01
0.3890	1.6070113e-01
0.3900	1.6125781e-01
0.3910	1.6181542e-01
0.3920	1.6237395e-01
0.3930	1.6293341e-01
0.3940	1.6349380e-01
0.3950	1.6405513e-01
0.3960	1.6461738e-01
0.3970	1.6518056e-01
0.3980	1.6574468e-01
0.3990	1.6630973e-01
0.4000	1.6687572e-01
0.4010	1.6744264e-01
0.4020	1.6801050e-01
0.4030	1.6857929e-01
0.4040	1.6914902e-01
0.4050	1.6971968e-01
0.4060	1.7029128e-01
0.4070	1.7086382e-01
0.4080	1.7143730e-01
0.4090	1.7201171e-01
0.4100	1.7258706e-01
0.4110	1.7316335e-01
0.4120	1.7374058e-01
0.4130	1.7431874e-01
0.4140	1.7489784e-01
0.4150	1.7547788e-01
0.4160	1.7605885e-01
0.4170	1.7664076e-01
0.4180	1.7722361e-01
0.4190	1.7780739e-01
0.4200	1.7839210e-01
0.4210	1.7897775e-01
0.4220	1.7956434e-01
0.4230	1.8015185e-01
0.4240	1.8074030e-01
0.4250	1.8132968e-01
0.4260	1.8191999e-01
0.4270	1.8251123e-01
0.4280	1.8310339e-01
0.4290	1.8369648e-01
0.4300	1.8429050e-01
0.4310	1.8488544e-01
0.4320	1.8548130e-01
0.4330	1.8607808e-01
0.4340	1.8667579e-01
0.4350	1.8727441e-01
0.4360	1.8787394e-01
0.4370	1.8847440e-01
0.4380	1.8907576e-01
0.4390	1.8967803e-01
0.4400	1.9028122e-01
0.4410	1.9088531e-01
0.4420	1.9149030e-01
0.4430	1.9209620e-01
0.4440	1.9270300e-01
0.4450	1.9331069e-01
0.4460	1.9391929e-01
0.4470	1.9452877e-01
0.4480	1.9513915e-01
0.4490	1.9575041e-01
0.4500	1.9636256e-01
0.4510	1.9697559e-01
0.4520	1.9758950e-01
0.4530	1.9820429e-01
0.4540	1.9881995e-01
0.4550	1.9943648e-01
0.4560	2.0005389e-01
0.4570	2.0067215e-01
0.4580	2.0129128e-01
0.4590	2.0191127e-01
0.4600	2.0253211e-01
0.4610	2.0315381e-01
0.4620	2.0377635e-01
0.4630	2.0439974e-01
0.4640	2.0502397e-01
0.4650	2.0564903e-01
0.4660	2.0627494e-01
0.4670	2.0690167e-01
0.4680	2.0752923e-01
0.4690	2.0815761e-01
0.4700	2.0878681e-01
0.4710	2.0941682e-01
0.4720	2.1004765e-01
0.4730	2.1067928e-01
0.4740	2.1131171e-01
0.4750	2.1194495e-01
0.4760	2.1257897e-01
0.4770	2.1321379e-01
0.4780	2.1384939e-01
0.4790	2.1448578e-01
0.4800	2.1512294e-01
0.4810	2.1576087e-01
0.4820	2.1639957e-01
0.4830	2.1703903e-01
0.4840	2.1767925e-01
0.4850	2.1832023e-01
0.4860	2.1896195e-01
0.4870	2.1960442e-01
0.4880	2.2024762e-01
0.4890	2.2089157e-01
0.4900	2.2153624e-01
0.4910	2.2218163e-01
0.4920	2.2282775e-01
0.4930	2.2347458e-01
0.4940	2.2412212e-01
0.4950	2.2477037e-01
0.4960	2.2541931e-01
0.4970	2.2606895e-01
0.4980	2.2671928e-01
0.4990	2.2737029e-01
0.5000	2.2802199e-01
0.5010	2.2867435e-01
0.5020	2.2932739e-01
0.5030	2.2998109e-01
0.5040	2.3063544e-01
0.5050	2.3129045e-01
0.5060	2.3194611e-01
0.5070	2.3260241e-01
0.5080	2.3325935e-01
0.5090	2.3391691e-01
0.5100	2.3457511e-01
0.5110	2.3523392e-01
0.5120	2.3589335e-01
0.5130	2.3655340e-01
0.5140	2.3721404e-01
0.5150	2.3787529e-01
0.5160	2.3853713e-01
0.5170	2.3919955e-01
0.5180	2.3986256e-01
0.5190	2.4052615e-01
0.5200	2.4119031e-01
0.5210	2.4185504e-01
0.5220	2.4252033e-01
0.5230	2.4318618e-01
0.5240	2.4385258e-01
0.5250	2.4451952e-01
0.5260	2.4518701e-01
0.5270	2.4585503e-01
0.5280	2.4652357e-01
0.5290	2.4719265e-01
0.5300	2.4786224e-01
0.5310	2.4853235e-01
0.5320	2.4920296e-01
0.5330	2.4987408e-01
0.5340	2.5054570e-01
0.5350	2.5121781e-01
0.5360	2.5189041e-01
0.5370	2.5256349e-01
0.5380	2.5323705e-01
0.5390	2.5391108e-01
0.5400	2.5458558e-01
0.5410	2.5526054e-01
0.5420	2.5593596e-01
0.5430	2.5661183e-01
0.5440	2.5728815e-01
0.5450	2.5796491e-01
0.5460	2.5864211e-01
0.5470	2.5931975e-01
0.5480	2.5999781e-01
0.5490	2.6067630e-01
0.5500	2.6135520e-01
0.5510	2.6203452e-01
0.5520	2.6271425e-01
0.5530	2.6339438e-01
0.5540	2.6407492e-01
0.5550	2.6475584e-01
0.5560	2.6543716e-01
0.5570	2.6611887e-01
0.5580	2.6680096e-01
0.5590	2.6748343e-01
0.5600	2.6816627e-01
0.5610	2.6884948e-01
0.5620	2.6953306e-01
0.5630	2.7021699e-01
0.5640	2.7090128e-01
0.5650	2.7158593e-01
0.5660	2.7227092e-01
0.5670	2.7295626e-01
0.5680	2.7364194e-01
0.5690	2.7432795e-01
0.5700	2.7501429e-01
0.5710	2.7570097e-01
0.5720	2.7638797e-01
0.5730	2.7707529e-01
0.5740	2.7776292e-01
0.5750	2.7845087e-01
0.5760	2.7913913e-01
0.5770	2.7982769e-01
0.5780	2.8051655e-01
0.5790	2.8120572e-01
0.5800	2.8189518e-01
0.5810	2.8258493e-01
0.5820	2.8327496e-01
0.5830	2.8396528e-01
0.5840	2.8465589e-01
0.5850	2.8534677e-01
0.5860	2.8603792e-01
0.5870	2.8672935e-01
0.5880	2.8742104e-01
0.5890	2.8811300e-01
0.5900	2.8880521e-01
0.5910	2.8949769e-01
0.5920	2.9019042e-01
0.5930	2.9088340e-01
0.5940	2.9157663e-01
0.5950	2.9227011e-01
0.5960	2.9296383e-01
0.5970	2.9365779e-01
0.5980	2.9435198e-01
0.5990	2.9504641e-01
0.6000	2.9574107e-01
0.6010	2.9643596e-01
0.6020	2.9713107e-01
0.6030	2.9782641e-01
0.6040	2.9852196e-01
0.6050	2.9921773e-01
0.6060	2.9991372e-01
0.6070	3.0060991e-01
0.6080	3.0130632e-01
0.6090	3.0200293e-01
0.6100	3.0269974e-01
0.6110	3.0339675e-01
0.6120	3.0409396e-01
0.6130	3.0479137e-01
0.6140	3.0548897e-01
0.6150	3.0618675e-01
0.6160	3.0688473e-01
0.6170	3.0758289e-01
0.6180	3.0828123e-01
0.6190	3.0897975e-01
0.6200	3.0967845e-01
0.6210	3.1037732e-01
0.6220	3.1107636e-01
0.6230	3.1177558e-01
0.6240	3.1247496e-01
0.6250	3.1317450e-01
0.6260	3.1387421e-01
0.6270	3.1457407e-01
0.6280	3.1527409e-01
0.6290	3.1597427e-01
0.6300	3.1667459e-01
0.6310	3.1737507e-01
0.6320	3.1807569e-01
0.6330	3.1877646e-01
0.6340	3.1947737e-01
0.6350	3.2017841e-01
0.6360	3.2087960e-01
0.6370	3.2158091e-01
0.6380	3.2228236e-01
0.6390	3.2298394e-01
0.6400	3.2368564e-01
0.6410	3.2438747e-01
0.6420	3.2508942e-01
0.6430	3.2579148e-01
0.6440	3.2649366e-01
0.6450	3.2719596e-01
0.6460	3.2789836e-01
0.6470	3.2860088e-01
0.6480	3.2930350e-01
0.6490	3.3000622e-01
0.6500	3.3070904e-01
0.6510	3.3141196e-01
0.6520	3.3211497e-01
0.6530	3.3281807e-01
0.6540	3.3352126e-01
0.6550	3.3422454e-01
0.6560	3.3492790e-01
0.6570	3.3563135e-01
0.6580	3.3633486e-01
0.6590	3.3703846e-01
0.6600	3.3774212e-01
0.6610	3.3844586e-01
0.6620	3.3914966e-01
0.6630	3.3985352e-01
0.6640	3.4055744e-01
0.6650	3.4126142e-01
0.6660	3.4196545e-01
0.6670	3.4266953e-01
0.6680	3.4337366e-01
0.6690	3.4407784e-01
0.6700	3.4478205e-01
0.6710	3.4548631e-01
0.6720	3.4619059e-01
0.6730	3.4689491e-01
0.6740	3.4759926e-01
0.6750	3.4830363e-01
0.6760	3.4900803e-01
0.6770	3.4971244e-01
0.6780	3.5041687e-01
0.6790	3.5112131e-01
0.6800	3.5182575e-01
0.6810	3.5253020e-01
0.6820	3.5323466e-01
0.6830	3.5393911e-01
0.6840	3.5464355e-01
0.6850	3.5534798e-01
0.6860	3.5605241e-01
0.6870	3.5675681e-01
0.6880	3.5746119e-01
0.6890	3.5816555e-01
0.6900	3.5886989e-01
0.6910	3.5957419e-01
0.6920	3.6027845e-01
0.6930	3.6098268e-01
0.6940	3.6168686e-01
0.6950	3.6239100e-01
0.6960	3.6309508e-01
0.6970	3.6379912e-01
0.6980	3.6450309e-01
0.6990	3.6520700e-01
0.7000	3.6591085e-01
0.7010	3.6661462e-01
0.7020	3.6731833e-01
0.7030	3.6802195e-01
0.7040	3.6872549e-01
0.7050	3.6942895e-01
0.7060	3.7013231e-01
0.7070	3.7083559e-01
0.7080	3.7153876e-01
0.7090	3.7224183e-01
0.7100	3.7294480e-01
0.7110	3.7364766e-01
0.7120	3.7435040e-01
0.7130	3.7505302e-01
0.7140	3.7575552e-01
0.7150	3.7645790e-01
0.7160	3.7716014e-01
0.7170	3.7786225e-01
0.7180	3.7856422e-01
0.7190	3.7926605e-01
0.7200	3.7996773e-01
0.7210	3.8066925e-01
0.7220	3.8137063e-01
0.7230	3.8207184e-01
0.7240	3.8277289e-01
0.7250	3.8347376e-01
0.7260	3.8417447e-01
0.7270	3.8487500e-01
0.7280	3.8557535e-01
0.7290	3.8627552e-01
0.7300	3.8697549e-01
0.7310	3.8767528e-01
0.7320	3.8837486e-01
0.7330	3.8907425e-01
0.7340	3.8977343e-01
0.7350	3.9047240e-01
0.7360	3.9117115e-01
0.7370	3.9186969e-01
0.7380	3.9256801e-01
0.7390	3.9326610e-01
0.7400	3.9396396e-01
0.7410	3.9466158e-01
0.7420	3.9535897e-01
0.7430	3.9605612e-01
0.7440	3.9675302e-01
0.7450	3.9744967e-01
0.7460	3.9814607e-01
0.7470	3.9884221e-01
0.7480	3.9953808e-01
0.7490	4.0023370e-01
0.7500	4.0092904e-01
0.7510	4.0162411e-01
0.7520	4.0231890e-01
0.7530	4.0301341e-01
0.7540	4.0370764e-01
0.7550	4.0440158e-01
0.7560	4.0509523e-01
0.7570	4.0578858e-01
0.7580	4.0648163e-01
0.7590	4.0717438e-01
0.7600	4.0786683e-01
0.7610	4.0855896e-01
0.7620	4.0925078e-01
0.7630	4.0994228e-01
0.7640	4.1063346e-01
0.7650	4.1132432e-01
0.7660	4.1201485e-01
0.7670	4.1270505e-01
0.7680	4.1339492e-01
0.7690	4.1408444e-01
0.7700	4.1477363e-01
0.7710	4.1546248e-01
0.7720	4.1615097e-01
0.7730	4.1683912e-01
0.7740	4.1752691e-01
0.7750	4.1821434e-01
0.7760	4.1890142e-01
0.7770	4.1958813e-01
0.7780	4.2027448e-01
0.7790	4.2096045e-01
0.7800	4.2164606e-01
0.7810	4.2233129e-01
0.7820	4.2301614e-01
0.7830	4.2370062e-01
0.7840	4.2438470e-01
0.7850	4.2506841e-01
0.7860	4.2575172e-01
0.7870	4.2643464e-01
0.7880	4.2711717e-01
0.7890	4.2779930e-01
0.7900	4.2848103e-01
0.7910	4.2916236e-01
0.7920	4.2984328e-01
0.7930	4.3052379e-01
0.7940	4.3120390e-01
0.7950	4.3188359e-01
0.7960	4.3256287e-01
0.7970	4.3324173e-01
0.7980	4.3392017e-01
0.7990	4.3459819e-01
0.8000	4.3527578e-01
0.8010	4.3595295e-01
0.8020	4.3662969e-01
0.8030	4.3730600e-01
0.8040	4.3798187e-01
0.8050	4.3865731e-01
0.8060	4.3933231e-01
0.8070	4.4000687e-01
0.8080	4.4068099e-01
0.8090	4.4135467e-01
0.8100	4.4202790e-01
0.8110	4.4270068e-01
0.8120	4.4337301e-01
0.8130	4.4404489e-01
0.8140	4.4471632e-01
0.8150	4.4538729e-01
0.8160	4.4605781e-01
0.8170	4.4672786e-01
0.8180	4.4739745e-01
0.8190	4.4806658e-01
0.8200	4.4873525e-01
0.8210	4.4940345e-01
0.8220	4.5007118e-01
0.8230	4.5073845e-01
0.8240	4.5140524e-01
0.8250	4.5207156e-01
0.8260	4.5273740e-01
0.8270	4.5340277e-01
0.8280	4.5406766e-01
0.8290	4.5473207e-01
0.8300	4.5539600e-01
0.8310	4.5605945e-01
0.8320	4.5672242e-01
0.8330	4.5738490e-01
0.8340	4.5804689e-01
0.8350	4.5870840e-01
0.8360	4.5936942e-01
0.8370	4.6002994e-01
0.8380	4.6068998e-01
0.8390	4.6134952e-01
0.8400	4.6200857e-01
0.8410	4.6266713e-01
0.8420	4.6332518e-01
0.8430	4.6398275e-01
0.8440	4.6463981e-01
0.8450	4.6529637e-01
0.8460	4.6595243e-01
0.8470	4.6660799e-01
0.8480	4.6726304e-01
0.8490	4.6791759e-01
0.8500	4.6857164e-01
0.8510	4.6922518e-01
0.8520	4.6987821e-01
0.8530	4.7053073e-01
0.8540	4.7118275e-01
0.8550	4.7183426e-01
0.8560	4.7248525e-01
0.8570	4.7313573e-01
0.8580	4.7378570e-01
0.8590	4.7443516e-01
0.8600	4.7508411e-01
0.8610	4.7573253e-01
0.8620	4.7638045e-01
0.8630	4.7702785e-01
0.8640	4.7767473e-01
0.8650	4.7832109e-01
0.8660	4.7896694e-01
0.8670	4.7961226e-01
0.8680	4.8025707e-01
0.8690	4.8090136e-01
0.8700	4.8154513e-01
0.8710	4.8218837e-01
0.8720	4.8283110e-01
0.8730	4.8347330e-01
0.8740	4.8411498e-01
0.8750	4.8475614e-01
0.8760	4.8539678e-01
0.8770	4.8603690e-01
0.8780	4.8667649e-01
0.8790	4.8731555e-01
0.8800	4.8795410e-01
0.8810	4.8859212e-01
0.8820	4.8922961e-01
0.8830	4.8986658e-01
0.8840	4.9050303e-01
0.8850	4.9113895e-01
0.8860	4.9177434e-01
0.8870	4.9240922e-01
0.8880	4.9304356e-01
0.8890	4.9367739e-01
0.8900	4.9431068e-01
0.8910	4.9494346e-01
0.8920	4.9557571e-01
0.8930	4.9620743e-01
0.8940	4.9683863e-01
0.8950	4.9746931e-01
0.8960	4.9809946e-01
0.8970	4.9872909e-01
0.8980	4.9935820e-01
0.8990	4.9998678e-01
0.9000	5.0061484e-01
0.9010	5.0124238e-01
0.9020	5.0186939e-01
0.9030	5.0249589e-01
0.9040	5.0312187e-01
0.9050	5.0374732e-01
0.9060	5.0437226e-01
0.9070	5.0499667e-01
0.9080	5.0562057e-01
0.9090	5.0624395e-01
0.9100	5.0686681e-01
0.9110	5.0748916e-01
0.9120	5.0811099e-01
0.9130	5.0873230e-01
0.9140	5.0935310e-01
0.9150	5.0997339e-01
0.9160	5.1059317e-01
0.9170	5.1121243e-01
0.9180	5.1183118e-01
0.9190	5.1244943e-01
0.9200	5.1306716e-01
0.9210	5.1368439e-01
0.9220	5.1430111e-01
0.9230	5.1491732e-01
0.9240	5.1553303e-01
0.9250	5.1614824e-01
0.9260	5.1676294e-01
0.9270	5.1737715e-01
0.9280	5.1799085e-01
0.9290	5.1860406e-01
0.9300	5.1921676e-01
0.9310	5.1982897e-01
0.9320	5.2044069e-01
0.9330	5.2105192e-01
0.9340	5.2166265e-01
0.9350	5.2227289e-01
0.9360	5.2288264e-01
0.9370	5.2349191e-01
0.9380	5.2410069e-01
0.9390	5.2470898e-01
0.9400	5.2531679e-01
0.9410	5.2592412e-01
0.9420	5.2653097e-01
0.9430	5.2713734e-01
0.9440	5.2774324e-01
0.9450	5.2834866e-01
0.9460	5.2895361e-01
0.9470	5.2955808e-01
0.9480	5.3016209e-01
0.9490	5.3076563e-01
