# Time (a.u.)	Order parameter |r|
"g(w): std dev = 0.262"
0.0000	3.6784471e-02
0.0010	3.6832395e-02
0.0020	3.6886005e-02
0.0030	3.6945308e-02
0.0040	3.7010311e-02
0.0050	3.7081016e-02
0.0060	3.7157425e-02
0.0070	3.7239533e-02
0.0080	3.7327338e-02
0.0090	3.7420830e-02
0.0100	3.7520001e-02
0.0110	3.7624838e-02
0.0120	3.7735327e-02
0.0130	3.7851449e-02
0.0140	3.7973186e-02
0.0150	3.8100517e-02
0.0160	3.8233417e-02
0.0170	3.8371860e-02
0.0180	3.8515819e-02
0.0190	3.8665264e-02
0.0200	3.8820162e-02
0.0210	3.8980481e-02
0.0220	3.9146185e-02
0.0230	3.9317237e-02
0.0240	3.9493599e-02
0.0250	3.9675230e-02
0.0260	3.9862090e-02
0.0270	4.0054136e-02
0.0280	4.0251324e-02
0.0290	4.0453609e-02
0.0300	4.0660946e-02
0.0310	4.0873286e-02
0.0320	4.1090583e-02
0.0330	4.1312788e-02
0.0340	4.1539850e-02
0.0350	4.1771722e-02
0.0360	4.2008350e-02
0.0370	4.2249686e-02
0.0380	4.2495676e-02
0.0390	4.2746269e-02
0.0400	4.3001413e-02
0.0410	4.3261055e-02
0.0420	4.3525143e-02
0.0430	4.3793624e-02
0.0440	4.4066445e-02
0.0450	4.4343553e-02
0.0460	4.4624895e-02
0.0470	4.4910419e-02
0.0480	4.5200071e-02
0.0490	4.5493800e-02
0.0500	4.5791553e-02
0.0510	4.6093279e-02
0.0520	4.6398925e-02
0.0530	4.6708439e-02
0.0540	4.7021772e-02
0.0550	4.7338873e-02
0.0560	4.7659690e-02
0.0570	4.7984175e-02
0.0580	4.8312278e-02
0.0590	4.8643949e-02
0.0600	4.8979142e-02
0.0610	4.9317807e-02
0.0620	4.9659897e-02
0.0630	5.0005366e-02
0.0640	5.0354167e-02
0.0650	5.0706255e-02
0.0660	5.1061584e-02
0.0670	5.1420109e-02
0.0680	5.1781788e-02
0.0690	5.2146576e-02
0.0700	5.2514431e-02
0.0710	5.2885311e-02
0.0720	5.3259173e-02
0.0730	5.3635977e-02
0.0740	5.4015683e-02
0.0750	5.4398251e-02
0.0760	5.4783641e-02
0.0770	5.5171816e-02
0.0780	5.5562737e-02
0.0790	5.5956367e-02
0.0800	5.6352669e-02
0.0810	5.6751607e-02
0.0820	5.7153145e-02
0.0830	5.7557249e-02
0.0840	5.7963884e-02
0.0850	5.8373016e-02
0.0860	5.8784612e-02
0.0870	5.9198640e-02
0.0880	5.9615066e-02
0.0890	6.0033860e-02
0.0900	6.0454991e-02
0.0910	6.0878427e-02
0.0920	6.1304140e-02
0.0930	6.1732099e-02
0.0940	6.2162275e-02
0.0950	6.2594640e-02
0.0960	6.3029167e-02
0.0970	6.3465827e-02
0.0980	6.3904594e-02
0.0990	6.4345441e-02
0.1000	6.4788341e-02
0.1010	6.5233271e-02
0.1020	6.5680203e-02
0.1030	6.6129114e-02
0.1040	6.6579979e-02
0.1050	6.7032775e-02
0.1060	6.7487478e-02
0.1070	6.7944065e-02
0.1080	6.8402513e-02
0.1090	6.8862800e-02
0.1100	6.9324905e-02
0.1110	6.9788805e-02
0.1120	7.0254481e-02
0.1130	7.0721910e-02
0.1140	7.1191074e-02
0.1150	7.1661951e-02
0.1160	7.2134522e-02
0.1170	7.2608768e-02
0.1180	7.3084670e-02
0.1190	7.3562209e-02
0.1200	7.4041367e-02
0.1210	7.4522126e-02
0.1220	7.5004468e-02
0.1230	7.5488376e-02
0.1240	7.5973833e-02
0.1250	7.6460821e-02
0.1260	7.6949325e-02
0.1270	7.7439328e-02
0.1280	7.7930814e-02
0.1290	7.8423768e-02
0.1300	7.8918173e-02
0.1310	7.9414015e-02
0.1320	7.9911279e-02
0.1330	8.0409950e-02
0.1340	8.0910014e-02
0.1350	8.1411457e-02
0.1360	8.1914263e-02
0.1370	8.2418421e-02
0.1380	8.2923915e-02
0.1390	8.3430734e-02
0.1400	8.3938863e-02
0.1410	8.4448290e-02
0.1420	8.4959002e-02
0.1430	8.5470987e-02
0.1440	8.5984232e-02
0.1450	8.6498726e-02
0.1460	8.7014455e-02
0.1470	8.7531410e-02
0.1480	8.8049577e-02
0.1490	8.8568946e-02
0.1500	8.9089506e-02
0.1510	8.9611245e-02
0.1520	9.0134153e-02
0.1530	9.0658218e-02
0.1540	9.1183431e-02
0.1550	9.1709781e-02
0.1560	9.2237258e-02
0.1570	9.2765852e-02
0.1580	9.3295553e-02
0.1590	9.3826350e-02
0.1600	9.4358235e-02
0.1610	9.4891198e-02
0.1620	9.5425230e-02
0.1630	9.5960321e-02
0.1640	9.6496463e-02
0.1650	9.7033646e-02
0.1660	9.7571861e-02
0.1670	9.8111101e-02
0.1680	9.8651356e-02
0.1690	9.9192617e-02
0.1700	9.9734878e-02
0.1710	1.0027813e-01
0.1720	1.0082236e-01
0.1730	1.0136757e-01
0.1740	1.0191374e-01
0.1750	1.0246087e-01
0.1760	1.0300896e-01
0.1770	1.0355799e-01
0.1780	1.0410795e-01
0.1790	1.0465884e-01
0.1800	1.0521065e-01
0.1810	1.0576338e-01
0.1820	1.0631702e-01
0.1830	1.0687155e-01
0.1840	1.0742698e-01
0.1850	1.0798329e-01
0.1860	1.0854049e-01
0.1870	1.0909856e-01
0.1880	1.0965749e-01
0.1890	1.1021729e-01
0.1900	1.1077794e-01
0.1910	1.1133944e-01
0.1920	1.1190178e-01
0.1930	1.1246496e-01
0.1940	1.1302896e-01
0.1950	1.1359379e-01
0.1960	1.1415944e-01
0.1970	1.1472590e-01
0.1980	1.1529317e-01
0.1990	1.1586123e-01
0.2000	1.1643010e-01
0.2010	1.1699975e-01
0.2020	1.1757018e-01
0.2030	1.1814140e-01
0.2040	1.1871339e-01
0.2050	1.1928615e-01
0.2060	1.1985967e-01
0.2070	1.2043395e-01
0.2080	1.2100899e-01
0.2090	1.2158477e-01
0.2100	1.2216130e-01
0.2110	1.2273856e-01
0.2120	1.2331656e-01
0.2130	1.2389529e-01
0.2140	1.2447475e-01
0.2150	1.2505492e-01
0.2160	1.2563581e-01
0.2170	1.2621741e-01
0.2180	1.2679972e-01
0.2190	1.2738273e-01
0.2200	1.2796644e-01
0.2210	1.2855085e-01
0.2220	1.2913594e-01
0.2230	1.2972172e-01
0.2240	1.3030818e-01
0.2250	1.3089532e-01
0.2260	1.3148314e-01
0.2270	1.3207162e-01
0.2280	1.3266077e-01
0.2290	1.3325058e-01
0.2300	1.3384105e-01
0.2310	1.3443218e-01
0.2320	1.3502395e-01
0.2330	1.3561638e-01
0.2340	1.3620945e-01
0.2350	1.3680316e-01
0.2360	1.3739751e-01
0.2370	1.3799249e-01
0.2380	1.3858810e-01
0.2390	1.3918434e-01
0.2400	1.3978120e-01
0.2410	1.4037868e-01
0.2420	1.4097679e-01
0.2430	1.4157550e-01
0.2440	1.4217483e-01
0.2450	1.4277477e-01
0.2460	1.4337531e-01
0.2470	1.4397645e-01
0.2480	1.4457819e-01
0.2490	1.4518053e-01
0.2500	1.4578347e-01
0.2510	1.4638699e-01
0.2520	1.4699111e-01
0.2530	1.4759581e-01
0.2540	1.4820109e-01
0.2550	1.4880695e-01
0.2560	1.4941339e-01
0.2570	1.5002041e-01
0.2580	1.5062800e-01
0.2590	1.5123616e-01
0.2600	1.5184489e-01
0.2610	1.5245418e-01
0.2620	1.5306404e-01
0.2630	1.5367446e-01
0.2640	1.5428543e-01
0.2650	1.5489697e-01
0.2660	1.5550906e-01
0.2670	1.5612170e-01
0.2680	1.5673489e-01
0.2690	1.5734863e-01
0.2700	1.5796291e-01
0.2710	1.5857775e-01
0.2720	1.5919312e-01
0.2730	1.5980903e-01
0.2740	1.6042548e-01
0.2750	1.6104247e-01
0.2760	1.6166000e-01
0.2770	1.6227805e-01
0.2780	1.6289664e-01
0.2790	1.6351576e-01
0.2800	1.6413541e-01
0.2810	1.6475558e-01
0.2820	1.6537628e-01
0.2830	1.6599750e-01
0.2840	1.6661924e-01
0.2850	1.6724151e-01
0.2860	1.6786429e-01
0.2870	1.6848759e-01
0.2880	1.6911141e-01
0.2890	1.6973574e-01
0.2900	1.7036059e-01
0.2910	1.7098594e-01
0.2920	1.7161181e-01
0.2930	1.7223819e-01
0.2940	1.7286508e-01
0.2950	1.7349247e-01
0.2960	1.7412037e-01
0.2970	1.7474878e-01
0.2980	1.7537769e-01
0.2990	1.7600710e-01
0.3000	1.7663702e-01
0.3010	1.7726743e-01
0.3020	1.7789835e-01
0.3030	1.7852976e-01
0.3040	1.7916168e-01
0.3050	1.7979409e-01
0.3060	1.8042700e-01
0.3070	1.8106040e-01
0.3080	1.8169430e-01
0.3090	1.8232869e-01
0.3100	1.8296358e-01
0.3110	1.8359896e-01
0.3120	1.8423483e-01
0.3130	1.8487120e-01
0.3140	1.8550805e-01
0.3150	1.8614539e-01
0.3160	1.8678323e-01
0.3170	1.8742155e-01
0.3180	1.8806037e-01
0.3190	1.8869967e-01
0.3200	1.8933946e-01
0.3210	1.8997973e-01
0.3220	1.9062049e-01
0.3230	1.9126174e-01
0.3240	1.9190348e-01
0.3250	1.9254570e-01
0.3260	1.9318841e-01
0.3270	1.9383160e-01
0.3280	1.9447528e-01
0.3290	1.9511944e-01
0.3300	1.9576408e-01
0.3310	1.9640921e-01
0.3320	1.9705483e-01
0.3330	1.9770092e-01
0.3340	1.9834751e-01
0.3350	1.9899457e-01
0.3360	1.9964212e-01
0.3370	2.0029015e-01
0.3380	2.0093866e-01
0.3390	2.0158766e-01
0.3400	2.0223714e-01
0.3410	2.0288710e-01
0.3420	2.0353755e-01
0.3430	2.0418848e-01
0.3440	2.0483989e-01
0.3450	2.0549178e-01
0.3460	2.0614416e-01
0.3470	2.0679702e-01
0.3480	2.0745036e-01
0.3490	2.0810419e-01
0.3500	2.0875850e-01
0.3510	2.0941329e-01
0.3520	2.1006857e-01
0.3530	2.1072433e-01
0.3540	2.1138057e-01
0.3550	2.1203730e-01
0.3560	2.1269451e-01
0.3570	2.1335221e-01
0.3580	2.1401039e-01
0.3590	2.1466906e-01
0.3600	2.1532821e-01
0.3610	2.1598785e-01
0.3620	2.1664797e-01
0.3630	2.1730858e-01
0.3640	2.1796967e-01
0.3650	2.1863125e-01
0.3660	2.1929332e-01
0.3670	2.1995587e-01
0.3680	2.2061891e-01
0.3690	2.2128244e-01
0.3700	2.2194646e-01
0.3710	2.2261097e-01
0.3720	2.2327596e-01
0.3730	2.2394144e-01
0.3740	2.2460741e-01
0.3750	2.2527388e-01
0.3760	2.2594083e-01
0.3770	2.2660827e-01
0.3780	2.2727620e-01
0.3790	2.2794463e-01
0.3800	2.2861354e-01
0.3810	2.2928295e-01
0.3820	2.2995285e-01
0.3830	2.3062324e-01
0.3840	2.3129413e-01
0.3850	2.3196551e-01
0.3860	2.3263739e-01
0.3870	2.3330975e-01
0.3880	2.3398262e-01
0.3890	2.3465598e-01
0.3900	2.3532983e-01
0.3910	2.3600418e-01
0.3920	2.3667903e-01
0.3930	2.3735437e-01
0.3940	2.3803022e-01
0.3950	2.3870656e-01
0.3960	2.3938339e-01
0.3970	2.4006073e-01
0.3980	2.4073857e-01
0.3990	2.4141691e-01
0.4000	2.4209574e-01
0.4010	2.4277508e-01
0.4020	2.4345492e-01
0.4030	2.4413526e-01
0.4040	2.4481610e-01
0.4050	2.4549745e-01
0.4060	2.4617930e-01
0.4070	2.4686165e-01
0.4080	2.4754450e-01
0.4090	2.4822786e-01
0.4100	2.4891173e-01
0.4110	2.4959610e-01
0.4120	2.5028097e-01
0.4130	2.5096635e-01
0.4140	2.5165224e-01
0.4150	2.5233864e-01
0.4160	2.5302554e-01
0.4170	2.5371295e-01
0.4180	2.5440087e-01
0.4190	2.5508930e-01
0.4200	2.5577823e-01
0.4210	2.5646768e-01
0.4220	2.5715764e-01
0.4230	2.5784810e-01
0.4240	2.5853908e-01
0.4250	2.5923057e-01
0.4260	2.5992257e-01
0.4270	2.6061508e-01
0.4280	2.6130811e-01
0.4290	2.6200165e-01
0.4300	2.6269570e-01
0.4310	2.6339027e-01
0.4320	2.6408535e-01
0.4330	2.6478094e-01
0.4340	2.6547705e-01
0.4350	2.6617368e-01
0.4360	2.6687082e-01
0.4370	2.6756847e-01
0.4380	2.6826665e-01
0.4390	2.6896534e-01
0.4400	2.6966454e-01
0.4410	2.7036427e-01
0.4420	2.7106451e-01
0.4430	2.7176527e-01
0.4440	2.7246655e-01
0.4450	2.7316835e-01
0.4460	2.7387067e-01
0.4470	2.7457351e-01
0.4480	2.7527686e-01
0.4490	2.7598074e-01
0.4500	2.7668514e-01
0.4510	2.7739006e-01
0.4520	2.7809550e-01
0.4530	2.7880146e-01
0.4540	2.7950795e-01
0.4550	2.8021495e-01
0.4560	2.8092248e-01
0.4570	2.8163053e-01
0.4580	2.8233910e-01
0.4590	2.8304820e-01
0.4600	2.8375782e-01
0.4610	2.8446797e-01
0.4620	2.8517863e-01
0.4630	2.8588983e-01
0.4640	2.8660154e-01
0.4650	2.8731379e-01
0.4660	2.8802655e-01
0.4670	2.8873985e-01
0.4680	2.8945366e-01
0.4690	2.9016801e-01
0.4700	2.9088288e-01
0.4710	2.9159827e-01
0.4720	2.9231419e-01
0.4730	2.9303064e-01
0.4740	2.9374762e-01
0.4750	2.9446512e-01
0.4760	2.9518315e-01
0.4770	2.9590171e-01
0.4780	2.9662079e-01
0.4790	2.9734041e-01
0.4800	2.9806055e-01
0.4810	2.9878122e-01
0.4820	2.9950241e-01
0.4830	3.0022414e-01
0.4840	3.0094639e-01
0.4850	3.0166918e-01
0.4860	3.0239249e-01
0.4870	3.0311633e-01
0.4880	3.0384070e-01
0.4890	3.0456560e-01
0.4900	3.0529104e-01
0.4910	3.0601700e-01
0.4920	3.0674349e-01
0.4930	3.0747051e-01
0.4940	3.0819806e-01
0.4950	3.0892614e-01
0.4960	3.0965475e-01
0.4970	3.1038389e-01
0.4980	3.1111356e-01
0.4990	3.1184377e-01
0.5000	3.1257450e-01
0.5010	3.1330577e-01
0.5020	3.1403756e-01
0.5030	3.1476989e-01
0.5040	3.1550275e-01
0.5050	3.1623614e-01
0.5060	3.1697006e-01
0.5070	3.1770452e-01
0.5080	3.1843950e-01
0.5090	3.1917502e-01
0.5100	3.1991107e-01
0.5110	3.2064765e-01
0.5120	3.2138477e-01
0.5130	3.2212242e-01
0.5140	3.2286060e-01
0.5150	3.2359931e-01
0.5160	3.2433855e-01
0.5170	3.2507833e-01
0.5180	3.2581864e-01
0.5190	3.2655948e-01
0.5200	3.2730086e-01
0.5210	3.2804276e-01
0.5220	3.2878520e-01
0.5230	3.2952818e-01
0.5240	3.3027169e-01
0.5250	3.3101573e-01
0.5260	3.3176030e-01
0.5270	3.3250541e-01
0.5280	3.3325105e-01
0.5290	3.3399722e-01
0.5300	3.3474393e-01
0.5310	3.3549117e-01
0.5320	3.3623895e-01
0.5330	3.3698726e-01
0.5340	3.3773610e-01
0.5350	3.3848548e-01
0.5360	3.3923539e-01
0.5370	3.3998583e-01
0.5380	3.4073681e-01
0.5390	3.4148832e-01
0.5400	3.4224037e-01
0.5410	3.4299295e-01
0.5420	3.4374607e-01
0.5430	3.4449972e-01
0.5440	3.4525390e-01
0.5450	3.4600862e-01
0.5460	3.4676387e-01
0.5470	3.4751966e-01
0.5480	3.4827598e-01
0.5490	3.4903284e-01
0.5500	3.4979023e-01
0.5510	3.5054815e-01
0.5520	3.5130661e-01
0.5530	3.5206561e-01
0.5540	3.5282514e-01
0.5550	3.5358520e-01
0.5560	3.5434580e-01
0.5570	3.5510693e-01
0.5580	3.5586860e-01
0.5590	3.5663080e-01
0.5600	3.5739354e-01
0.5610	3.5815681e-01
0.5620	3.5892062e-01
0.5630	3.5968496e-01
0.5640	3.6044983e-01
0.5650	3.6121525e-01
0.5660	3.6198119e-01
0.5670	3.6274767e-01
0.5680	3.6351469e-01
0.5690	3.6428224e-01
0.5700	3.6505032e-01
0.5710	3.6581894e-01
0.5720	3.6658809e-01
0.5730	3.6735778e-01
0.5740	3.6812800e-01
0.5750	3.6889876e-01
0.5760	3.6967005e-01
0.5770	3.7044187e-01
0.5780	3.7121423e-01
0.5790	3.7198712e-01
0.5800	3.7276055e-01
0.5810	3.7353451e-01
0.5820	3.7430900e-01
0.5830	3.7508403e-01
0.5840	3.7585959e-01
0.5850	3.7663569e-01
0.5860	3.7741231e-01
0.5870	3.7818947e-01
0.5880	3.7896717e-01
0.5890	3.7974539e-01
0.5900	3.8052415e-01
0.5910	3.8130344e-01
0.5920	3.8208327e-01
0.5930	3.8286362e-01
0.5940	3.8364451e-01
0.5950	3.8442593e-01
0.5960	3.8520788e-01
0.5970	3.8599036e-01
0.5980	3.8677337e-01
0.5990	3.8755692e-01
0.6000	3.8834099e-01
0.6010	3.8912559e-01
0.6020	3.8991072e-01
0.6030	3.9069639e-01
0.6040	3.9148258e-01
0.6050	3.9226930e-01
0.6060	3.9305654e-01
0.6070	3.9384432e-01
0.6080	3.9463262e-01
0.6090	3.9542145e-01
0.6100	3.9621081e-01
0.6110	3.9700069e-01
0.6120	3.9779110e-01
0.6130	3.9858203e-01
0.6140	3.9937349e-01
0.6150	4.0016548e-01
0.6160	4.0095798e-01
0.6170	4.0175101e-01
0.6180	4.0254457e-01
0.6190	4.0333864e-01
0.6200	4.0413324e-01
0.6210	4.0492836e-01
0.6220	4.0572399e-01
0.6230	4.0652015e-01
0.6240	4.0731683e-01
0.6250	4.0811402e-01
0.6260	4.0891174e-01
0.6270	4.0970997e-01
0.6280	4.1050871e-01
0.6290	4.1130797e-01
0.6300	4.1210775e-01
0.6310	4.1290803e-01
0.6320	4.1370884e-01
0.6330	4.1451015e-01
0.6340	4.1531197e-01
0.6350	4.1611431e-01
0.6360	4.1691715e-01
0.6370	4.1772051e-01
0.6380	4.1852437e-01
0.6390	4.1932873e-01
0.6400	4.2013360e-01
0.6410	4.2093898e-01
0.6420	4.2174486e-01
0.6430	4.2255124e-01
0.6440	4.2335812e-01
0.6450	4.2416550e-01
0.6460	4.2497338e-01
0.6470	4.2578176e-01
0.6480	4.2659063e-01
0.6490	4.2740000e-01
0.6500	4.2820986e-01
0.6510	4.2902021e-01
0.6520	4.2983105e-01
0.6530	4.3064239e-01
0.6540	4.3145421e-01
0.6550	4.3226652e-01
0.6560	4.3307931e-01
0.6570	4.3389259e-01
0.6580	4.3470635e-01
0.6590	4.3552059e-01
0.6600	4.3633531e-01
0.6610	4.3715050e-01
0.6620	4.3796617e-01
0.6630	4.3878232e-01
0.6640	4.3959894e-01
0.6650	4.4041602e-01
0.6660	4.4123358e-01
0.6670	4.4205160e-01
0.6680	4.4287009e-01
0.6690	4.4368904e-01
0.6700	4.4450846e-01
0.6710	4.4532833e-01
0.6720	4.4614866e-01
0.6730	4.4696944e-01
0.6740	4.4779068e-01
0.6750	4.4861237e-01
0.6760	4.4943451e-01
0.6770	4.5025710e-01
0.6780	4.5108013e-01
0.6790	4.5190360e-01
0.6800	4.5272751e-01
0.6810	4.5355186e-01
0.6820	4.5437665e-01
0.6830	4.5520187e-01
0.6840	4.5602752e-01
0.6850	4.5685360e-01
0.6860	4.5768011e-01
0.6870	4.5850704e-01
0.6880	4.5933439e-01
0.6890	4.6016215e-01
0.6900	4.6099034e-01
0.6910	4.6181894e-01
0.6920	4.6264794e-01
0.6930	4.6347736e-01
0.6940	4.6430718e-01
0.6950	4.6513741e-01
0.6960	4.6596803e-01
0.6970	4.6679905e-01
0.6980	4.6763046e-01
0.6990	4.6846227e-01
0.7000	4.6929446e-01
0.7010	4.7012703e-01
0.7020	4.7095999e-01
0.7030	4.7179333e-01
0.7040	4.7262704e-01
0.7050	4.7346113e-01
0.7060	4.7429558e-01
0.7070	4.7513040e-01
0.7080	4.7596558e-01
0.7090	4.7680112e-01
0.7100	4.7763702e-01
0.7110	4.7847327e-01
0.7120	4.7930987e-01
0.7130	4.8014682e-01
0.7140	4.8098411e-01
0.7150	4.8182173e-01
0.7160	4.8265969e-01
0.7170	4.8349799e-01
0.7180	4.8433661e-01
0.7190	4.8517555e-01
0.7200	4.8601482e-01
0.7210	4.8685440e-01
0.7220	4.8769430e-01
0.7230	4.8853450e-01
0.7240	4.8937501e-01
0.7250	4.9021582e-01
0.7260	4.9105693e-01
0.7270	4.9189833e-01
0.7280	4.9274002e-01
0.7290	4.9358200e-01
0.7300	4.9442426e-01
0.7310	4.9526679e-01
0.7320	4.9610960e-01
0.7330	4.9695268e-01
0.7340	4.9779602e-01
0.7350	4.9863962e-01
0.7360	4.9948348e-01
0.7370	5.0032759e-01
0.7380	5.0117195e-01
0.7390	5.0201655e-01
0.7400	5.0286138e-01
0.7410	5.0370646e-01
0.7420	5.0455176e-01
0.7430	5.0539728e-01
0.7440	5.0624303e-01
0.7450	5.0708899e-01
0.7460	5.0793517e-01
0.7470	5.0878155e-01
0.7480	5.0962813e-01
0.7490	5.1047491e-01
0.7500	5.1132188e-01
0.7510	5.1216904e-01
0.7520	5.1301638e-01
0.7530	5.1386390e-01
0.7540	5.1471159e-01
0.7550	5.1555945e-01
0.7560	5.1640748e-01
0.7570	5.1725566e-01
0.7580	5.1810399e-01
0.7590	5.1895247e-01
0.7600	5.1980110e-01
0.7610	5.2064986e-01
0.7620	5.2149876e-01
0.7630	5.2234778e-01
0.7640	5.2319693e-01
0.7650	5.2404619e-01
0.7660	5.2489556e-01
0.7670	5.2574504e-01
0.7680	5.2659462e-01
0.7690	5.2744430e-01
0.7700	5.2829407e-01
0.7710	5.2914393e-01
0.7720	5.2999386e-01
0.7730	5.3084387e-01
0.7740	5.3169395e-01
0.7750	5.3254409e-01
0.7760	5.3339429e-01
0.7770	5.3424454e-01
0.7780	5.3509484e-01
0.7790	5.3594518e-01
0.7800	5.3679556e-01
0.7810	5.3764597e-01
0.7820	5.3849640e-01
0.7830	5.3934685e-01
0.7840	5.4019732e-01
0.7850	5.4104779e-01
0.7860	5.4189827e-01
0.7870	5.4274874e-01
0.7880	5.4359921e-01
0.7890	5.4444966e-01
0.7900	5.4530009e-01
0.7910	5.4615049e-01
0.7920	5.4700086e-01
0.7930	5.4785119e-01
0.7940	5.4870148e-01
0.7950	5.4955172e-01
0.7960	5.5040191e-01
0.7970	5.5125203e-01
0.7980	5.5210209e-01
0.7990	5.5295207e-01
0.8000	5.5380198e-01
0.8010	5.5465180e-01
0.8020	5.5550153e-01
0.8030	5.5635117e-01
0.8040	5.5720070e-01
0.8050	5.5805012e-01
0.8060	5.5889944e-01
0.8070	5.5974863e-01
0.8080	5.6059769e-01
0.8090	5.6144663e-01
0.8100	5.6229543e-01
0.8110	5.6314408e-01
0.8120	5.6399259e-01
0.8130	5.6484094e-01
0.8140	5.6568912e-01
0.8150	5.6653715e-01
0.8160	5.6738499e-01
0.8170	5.6823266e-01
0.8180	5.6908015e-01
0.8190	5.6992744e-01
0.8200	5.7077454e-01
0.8210	5.7162143e-01
0.8220	5.7246812e-01
0.8230	5.7331459e-01
0.8240	5.7416084e-01
0.8250	5.7500686e-01
0.8260	5.7585266e-01
0.8270	5.7669821e-01
0.8280	5.7754352e-01
0.8290	5.7838858e-01
0.8300	5.7923338e-01
0.8310	5.8007792e-01
0.8320	5.8092220e-01
0.8330	5.8176620e-01
0.8340	5.8260992e-01
0.8350	5.8345336e-01
0.8360	5.8429650e-01
0.8370	5.8513935e-01
0.8380	5.8598189e-01
0.8390	5.8682413e-01
0.8400	5.8766605e-01
0.8410	5.8850765e-01
0.8420	5.8934893e-01
0.8430	5.9018987e-01
0.8440	5.9103047e-01
0.8450	5.9187074e-01
0.8460	5.9271065e-01
0.8470	5.9355021e-01
0.8480	5.9438941e-01
0.8490	5.9522824e-01
0.8500	5.9606670e-01
0.8510	5.9690478e-01
0.8520	5.9774248e-01
0.8530	5.9857979e-01
0.8540	5.9941670e-01
0.8550	6.0025322e-01
0.8560	6.0108933e-01
0.8570	6.0192503e-01
0.8580	6.0276031e-01
0.8590	6.0359517e-01
0.8600	6.0442960e-01
0.8610	6.0526360e-01
0.8620	6.0609716e-01
0.8630	6.0693027e-01
0.8640	6.0776294e-01
0.8650	6.0859515e-01
0.8660	6.0942690e-01
0.8670	6.1025818e-01
0.8680	6.1108900e-01
0.8690	6.1191933e-01
0.8700	6.1274918e-01
0.8710	6.1357855e-01
0.8720	6.1440743e-01
0.8730	6.1523580e-01
0.8740	6.1606368e-01
0.8750	6.1689104e-01
0.8760	6.1771789e-01
0.8770	6.1854422e-01
0.8780	6.1937003e-01
0.8790	6.2019531e-01
0.8800	6.2102006e-01
0.8810	6.2184427e-01
0.8820	6.2266793e-01
0.8830	6.2349104e-01
0.8840	6.2431360e-01
0.8850	6.2513560e-01
0.8860	6.2595704e-01
0.8870	6.2677791e-01
0.8880	6.2759820e-01
0.8890	6.2841791e-01
0.8900	6.2923704e-01
0.8910	6.3005558e-01
0.8920	6.3087353e-01
0.8930	6.3169088e-01
0.8940	6.3250763e-01
0.8950	6.3332377e-01
0.8960	6.3413929e-01
0.8970	6.3495420e-01
0.8980	6.3576849e-01
0.8990	6.3658215e-01
0.9000	6.3739517e-01
0.9010	6.3820757e-01
0.9020	6.3901932e-01
0.9030	6.3983043e-01
0.9040	6.4064088e-01
0.9050	6.4145069e-01
0.9060	6.4225983e-01
0.9070	6.4306831e-01
0.9080	6.4387612e-01
0.9090	6.4468326e-01
0.9100	6.4548973e-01
0.9110	6.4629551e-01
0.9120	6.4710061e-01
0.9130	6.4790502e-01
0.9140	6.4870874e-01
0.9150	6.4951175e-01
0.9160	6.5031407e-01
0.9170	6.5111568e-01
0.9180	6.5191657e-01
0.9190	6.5271675e-01
0.9200	6.5351622e-01
0.9210	6.5431496e-01
0.9220	6.5511297e-01
0.9230	6.5591025e-01
0.9240	6.5670679e-01
0.9250	6.5750260e-01
0.9260	6.5829766e-01
0.9270	6.5909197e-01
0.9280	6.5988553e-01
0.9290	6.6067834e-01
0.9300	6.6147038e-01
0.9310	6.6226167e-01
0.9320	6.6305218e-01
0.9330	6.6384192e-01
0.9340	6.6463089e-01
0.9350	6.6541908e-01
0.9360	6.6620648e-01
0.9370	6.6699310e-01
0.9380	6.6777893e-01
0.9390	6.6856396e-01
0.9400	6.6934820e-01
0.9410	6.7013163e-01
0.9420	6.7091426e-01
0.9430	6.7169608e-01
0.9440	6.7247709e-01
0.9450	6.7325728e-01
0.9460	6.7403665e-01
0.9470	6.7481520e-01
0.9480	6.7559292e-01
